Drop Height,Capillary Radius,R-s,R-e,Smax,Beta
2.931984547704348,0.6753403150984928,0.8900675624050259,1.0856115825652217,3.59,0.4
3.0418707122934245,0.6735395107878055,0.885918240923985,1.0949856324673986,3.6897632653061225,0.4
3.131424500990714,0.6660582385743773,0.8896615218859377,1.0853944692578354,3.7895265306122448,0.4
3.2354185151300365,0.6747486174363678,0.884866576618939,1.085809968776796,3.8892897959183674,0.4
3.3358467585497635,0.6893084828844606,0.8960886090923622,1.0865572219440283,3.98905306122449,0.4
3.4257225215313816,0.7064073917568282,0.8932846590775644,1.083773232236973,4.088816326530613,0.4
3.5235216501720084,0.7358364878888191,0.8938444784190985,1.0865843876056502,4.188579591836735,0.4
3.623672867530201,0.774000960025057,0.8906950310392953,1.084389414088573,4.288342857142857,0.4
3.7124521053246995,0.8136201978691111,0.8944641592582563,1.0838034782627302,4.38810612244898,0.4
3.8011728797369235,0.8597675131931759,0.8849994790195524,1.0891180344412732,4.487869387755103,0.4
3.8985713163188596,0.915728077011974,0.8888471537276629,1.0916893400701122,4.587632653061226,0.4
3.971255481238273,0.9656862818548004,0.8922568454358211,1.0863182820145616,4.687395918367348,0.4
4.051277291289174,1.0237572107469672,0.8892000393632326,1.0868392496070887,4.78715918367347,0.4
4.128312015869295,1.0847742943545502,0.8918782083250082,1.0844859816527959,4.886922448979593,0.4
4.205996053637846,1.1498793881666145,0.8931596583447913,1.0865137439589032,4.9866857142857155,0.4
4.271110008249169,1.2131745908318716,0.8728447038890278,1.095100954788898,5.086448979591838,0.4
4.348431194874877,1.2847209235031791,0.8852298027937906,1.0860610096171295,5.186212244897961,0.4
4.416486454768272,1.3553451452081227,0.8896921480756697,1.0930828256183729,5.285975510204083,0.4
4.488465691519229,1.430260324992221,0.8867976328259205,1.0864973481470235,5.385738775510205,0.4
4.5540216692141975,1.505115554352742,0.9010985322581959,1.0841707713391457,5.485502040816328,0.4
4.616201967246188,1.5810351522343278,0.8862528782987319,1.0871099566544566,5.585265306122451,0.4
4.688590118760435,1.6633020326421475,0.896940251971991,1.0824850153881616,5.685028571428573,0.4
4.737413001796724,1.7384564058958327,0.8894297224463056,1.0881850214978004,5.784791836734696,0.4
4.7949931187524735,1.8192290029550975,0.8868413977745624,1.0873175456706317,5.884555102040818,0.4
4.8481815770903545,1.8820043164149947,0.8941530108393754,1.0849937079666676,5.9843183673469404,0.4
4.920442139860659,1.9910624307747777,0.8642275057722588,1.0965487313421847,6.084081632653064,0.4
4.962214777691504,2.071761833537569,0.8909685852440873,1.0847891182819227,6.183844897959186,0.4
5.024526095356594,2.1625552491478377,0.8889272647016587,1.0869433055507123,6.283608163265308,0.4
5.07032314504085,2.248783694832918,0.8848591208059113,1.0874682404864304,6.383371428571431,0.4
5.105066193500482,2.332536017185057,0.8996624102159533,1.0902043263249304,6.483134693877553,0.4
5.161092834222257,2.4266875974405573,0.8885306366836174,1.0928413565778243,6.582897959183676,0.4
5.198940497880956,2.5154586176273397,0.8848050333223074,1.0913548236672894,6.682661224489799,0.4
5.227086864661594,2.6021452364820714,0.8826581675838641,1.0900835360999992,6.782424489795921,0.4
5.272415468181752,2.6976301233953537,0.8931498962817074,1.0881074593589544,6.882187755102043,0.4
5.323732138206437,2.79744476146521,0.8981556527675617,1.098918243533037,6.981951020408166,0.4
5.325711627776413,2.8786870500764183,0.8916122280348499,1.091217539517666,7.0817142857142885,0.4
5.370538189793593,2.9794002560219215,0.8862944236424923,1.0862136941178553,7.181477551020411,0.4
5.40556696701125,3.077804316511105,0.9038761699314257,1.0852875724445379,7.281240816326534,0.4
5.425912939542428,3.171689865118105,0.8835297228039751,1.086942733070334,7.381004081632656,0.4
5.4439914800991644,3.266198944859649,0.888536932631747,1.0927534753529278,7.480767346938778,0.4
5.4691606864464495,3.3653440838034077,0.9070888349597083,1.0825937670496752,7.580530612244901,0.4
5.508385703585213,3.4722538325943026,0.8800951480870283,1.080213906865676,7.680293877551024,0.4
5.516044549530399,3.5668437601215928,0.8856509691205497,1.0908622925427105,7.780057142857146,0.4
5.547475159825239,3.673475571286232,0.8893753252842755,1.0891347564186478,7.879820408163269,0.4
5.544659877682534,3.728273354905449,0.8922065316662001,1.0870559346043978,7.979583673469391,0.4
5.5397020463805,3.7049249759102394,0.8999914332715064,1.0841709502978258,8.079346938775513,0.4
5.562268048578715,3.8863508201039045,0.8867434365579213,1.0938020781574316,8.179110204081637,0.4
5.558521956400065,3.780519871428787,0.8978980584390671,1.0820504354869322,8.278873469387758,0.4
5.585237770180494,4.172983886621357,0.8890045222776054,1.0837682167166731,8.378636734693881,0.4
5.567131789408037,4.221449924503036,0.8875800480556384,1.0855076024441759,8.478400000000004,0.4
2.9172759060313167,0.7015188185173459,0.9075816444643161,1.086322475146935,3.5702572057561044,0.40816326530612246
3.0171857255866694,0.6957114048951696,0.8945103275783486,1.0936488978245054,3.666824703922997,0.40816326530612246
3.1121014979215524,0.6927209544704586,0.9071273057647089,1.0902508643647988,3.7633922020898893,0.40816326530612246
3.2154059159021027,0.7013104983044682,0.9049914906372502,1.0857011153640128,3.8599597002567823,0.40816326530612246
3.301531234784777,0.707188231753972,0.904141353536308,1.0904934041139536,3.9565271984236747,0.40816326530612246
3.4108920815017236,0.7333366472467404,0.9101398491364717,1.0873126627780831,4.053094696590567,0.40816326530612246
3.4976130836783095,0.7545444936739344,0.8943594165888995,1.0905675731252527,4.14966219475746,0.40816326530612246
3.590941724747115,0.786479932427209,0.8977493562578831,1.091942699568142,4.246229692924352,0.40816326530612246
3.6760455519520003,0.8211111633869415,0.8994900378339747,1.0929639265316016,4.342797191091245,0.40816326530612246
3.7622301804106737,0.8626976267318779,0.8925667374759397,1.0970915047745,4.439364689258138,0.40816326530612246
3.853195160289586,0.9123476941995108,0.8937753242846962,1.0901726756326968,4.53593218742503,0.40816326530612246
3.9161578242351207,0.9543608903287949,0.8968000458068336,1.089209213976335,4.632499685591923,0.40816326530612246
4.008874535873327,1.014864631285718,0.9086859503535321,1.087701222494242,4.729067183758815,0.40816326530612246
4.094668320229157,1.0764568614931183,0.886166426614699,1.09000641213516,4.825634681925708,0.40816326530612246
4.168266985080779,1.1366200176856776,0.8979902080228966,1.0833805196745372,4.922202180092601,0.40816326530612246
4.232074721696013,1.1962612487838147,0.9050942601045592,1.0898607898084895,5.018769678259493,0.40816326530612246
4.309563316327014,1.2650814196952802,0.90212480407952,1.0880871014652684,5.115337176426386,0.40816326530612246
4.367188175525662,1.328659868862837,0.8788133956577822,1.0891311136159576,5.211904674593278,0.40816326530612246
4.439562780850136,1.4012636267460952,0.9074671900339771,1.0933138946075875,5.308472172760171,0.40816326530612246
4.512214841013664,1.4766288343457399,0.9036782269499092,1.0877316994542636,5.405039670927064,0.40816326530612246
4.572348491848857,1.5494228436301452,0.908745996013436,1.0874016006232505,5.501607169093956,0.40816326530612246
4.6265129713722235,1.6222514522287108,0.8987576115938328,1.0884624440331994,5.598174667260849,0.40816326530612246
4.68630649949527,1.699690352443203,0.8960565863769466,1.097676835331704,5.694742165427741,0.40816326530612246
4.736565685903928,1.7755515377195399,0.9066403482796562,1.0877292197367603,5.7913096635946335,0.40816326530612246
4.789408813838071,1.8546285132038018,0.8999809097353267,1.0894391329607642,5.887877161761526,0.40816326530612246
4.847049384434507,1.9188085636422827,0.9069896901670823,1.0861050639980845,5.9844446599284185,0.40816326530612246
4.894846903905799,2.018975163279056,0.9014212124714478,1.088984426545249,6.081012158095311,0.40816326530612246
4.95619242827494,2.1076596672965984,0.8934824262203523,1.091342908238375,6.177579656262203,0.40816326530612246
4.993943929486756,2.1888745720944387,0.8991072083827883,1.0853103595426594,6.274147154429096,0.40816326530612246
5.0437048884208515,2.276857562610518,0.8985081061342739,1.089153770820658,6.370714652595989,0.40816326530612246
5.082712298278209,2.3624204016256214,0.9114062477481639,1.089257598547888,6.467282150762882,0.40816326530612246
5.145672640636007,2.4595970916669168,0.9062816413912723,1.0862157088611424,6.563849648929774,0.40816326530612246
5.162781734001588,2.5399715973064603,0.9018890928112325,1.0868141416185662,6.660417147096666,0.40816326530612246
5.197793580127972,2.6294310515959123,0.89275499960764,1.0887208222013331,6.756984645263559,0.40816326530612246
5.21517842102824,2.713362795422397,0.8947125159045315,1.0930791767723191,6.853552143430452,0.40816326530612246
5.244751762099822,2.7754921741261076,0.8805187926822216,1.0944817613492004,6.950119641597345,0.40816326530612246
5.279056014496599,2.868864535653569,0.8924586473112751,1.093345336564766,7.046687139764237,0.40816326530612246
5.306099091707896,2.991349957879057,0.8892699373030409,1.0926722832837819,7.143254637931129,0.40816326530612246
5.335804642717176,3.0870831125088203,0.8930863718830917,1.0913717977948507,7.239822136098022,0.40816326530612246
5.373294498952403,3.187797675660852,0.9046342066859809,1.0913413553591609,7.336389634264915,0.40816326530612246
5.384754673466597,3.2453871575456685,0.8932466522654688,1.0956049020296128,7.432957132431808,0.40816326530612246
5.402983314898346,3.271688297056195,0.8832607872581288,1.0866177717018353,7.5295246305987,0.40816326530612246
5.412091639371472,3.46701967343233,0.9017431409828368,1.0965173003088298,7.626092128765593,0.40816326530612246
5.420197090050518,3.5606804693913707,0.9173344662458682,1.0917983475573123,7.722659626932485,0.40816326530612246
5.442388295606173,3.4777085642317807,0.9022385213302729,1.0971726333007417,7.819227125099378,0.40816326530612246
5.461222596476486,3.7631942679986365,0.9162084259662788,1.0831077013227643,7.91579462326627,0.40816326530612246
5.452974211506606,3.6592309063596224,0.890176629249887,1.0888902018770035,8.012362121433164,0.40816326530612246
5.464896853007028,3.953491914375335,0.8945547364195748,1.0879928800224805,8.108929619600055,0.40816326530612246
5.464316263572152,3.886082315748621,0.8815856907676557,1.0989328802058904,8.205497117766948,0.40816326530612246
5.472342381619679,3.983151949868292,0.9129524231104342,1.0812711133591262,8.30206461593384,0.40816326530612246
2.899632576455099,0.7264836557732028,0.9087437240311705,1.0914504120370458,3.549595338676911,0.4163265306122449
2.994892831848114,0.7199697264128104,0.9159033178009032,1.090073564396438,3.643120658354034,0.4163265306122449
3.1029458279214945,0.7264598211556211,0.9124910261320696,1.0926751842988192,3.7366459780311576,0.4163265306122449
3.1861571394188353,0.7236137794342832,0.9110702681526631,1.0907851088773364,3.8301712977082807,0.4163265306122449
3.2664411026015094,0.7259032294305652,0.9122361117636257,1.089313943046606,3.923696617385404,0.4163265306122449
3.3686539393386687,0.7473997202070161,0.9084159663638014,1.0926136812416998,4.017221937062527,0.4163265306122449
3.4529488428509527,0.7657257384918673,0.9039648223135963,1.0921530883412938,4.110747256739651,0.4163265306122449
3.557993819455548,0.8016695767845119,0.9139827954557402,1.0909173499548521,4.204272576416773,0.4163265306122449
3.641116869557278,0.8325312819199261,0.913816645339446,1.092372845153372,4.297797896093897,0.4163265306122449
3.7196191067588753,0.8673320282371687,0.9200026313405686,1.0925077756848238,4.3913232157710205,0.4163265306122449
3.799945589221353,0.9088585351181214,0.9119889694247958,1.0910821735208285,4.484848535448144,0.4163265306122449
3.8873522970199845,0.959019747208503,0.9163327521436585,1.0924779785111314,4.5783738551252675,0.4163265306122449
3.970432484145681,1.0119053600120949,0.9114992643277773,1.0907999836858473,4.67189917480239,0.4163265306122449
4.027735493049082,1.057552691033871,0.905971023315387,1.0954675368565256,4.765424494479514,0.4163265306122449
4.1159842095151635,1.1144877644853044,0.9145866785183308,1.0912913415703482,4.858949814156636,0.4163265306122449
4.198439416112394,1.1860160736866598,0.9015500204753979,1.0947258208402533,4.95247513383376,0.4163265306122449
4.259650842224831,1.2449717028339922,0.9114152506025114,1.0931070159040508,5.046000453510883,0.4163265306122449
4.318403401420935,1.3062000698774399,0.9097589475119097,1.0923260068021947,5.139525773188007,0.4163265306122449
4.40213459717718,1.3810166894666638,0.9185103081601813,1.0884497787522804,5.23305109286513,0.4163265306122449
4.470551145491771,1.4521393999705268,0.9137317621107148,1.0934592966332826,5.326576412542253,0.4163265306122449
4.502552273567375,1.510852942617031,0.9016173223694388,1.0941707425231022,5.4201017322193765,0.4163265306122449
4.580314679918546,1.5910738202040131,0.9114278093800148,1.0893455988029435,5.513627051896499,0.4163265306122449
4.624035573169059,1.6597212917960482,0.9106807935294835,1.0923288092483965,5.607152371573623,0.4163265306122449
4.68681203648299,1.7385134788179806,0.9097898002629065,1.0871000704286828,5.700677691250746,0.4163265306122449
4.728815594085937,1.811094173306522,0.906280566847174,1.0915545544195842,5.79420301092787,0.4163265306122449
4.792812927989901,1.8763130882830785,0.9159410141617936,1.0923470916519127,5.887728330604993,0.4163265306122449
4.852908372947341,1.97903976930502,0.8973150501363303,1.097817397493786,5.981253650282116,0.4163265306122449
4.899943902956725,2.060044118369488,0.9137364514749505,1.0894651914386455,6.074778969959239,0.4163265306122449
4.925072780351514,2.1127639410009724,0.8980182686986676,1.092744998598274,6.168304289636362,0.4163265306122449
4.969851429170196,2.218211771288355,0.9153924601680675,1.089617612220328,6.2618296093134855,0.4163265306122449
5.020806421549348,2.3067296665230006,0.919386286449885,1.0896674021975454,6.355354928990609,0.4163265306122449
5.056350870995802,2.390827861215503,0.9026278586847392,1.0938061148061504,6.448880248667733,0.4163265306122449
5.090791387329862,2.4763015873464376,0.9069144757179044,1.1001949738261945,6.542405568344856,0.4163265306122449
5.124026106598544,2.563066683272958,0.9143742023185104,1.089344594807263,6.635930888021979,0.4163265306122449
5.147085264861779,2.6201503606653613,0.9176934109323904,1.0936448843280842,6.729456207699102,0.4163265306122449
5.192977685551292,2.742870686380328,0.9037908697675694,1.0907638354322722,6.822981527376225,0.4163265306122449
5.222039489101411,2.803928006153234,0.9097436153470578,1.0929711051166395,6.916506847053348,0.4163265306122449
5.245058885625265,2.9222718320765906,0.8890280818149612,1.0900165539889546,7.010032166730472,0.4163265306122449
5.2673849138880815,3.0127662809651,0.909702109597472,1.0969676053479407,7.103557486407595,0.4163265306122449
5.28240210943487,3.101612303600837,0.9180560404411422,1.0997276899763775,7.197082806084719,0.4163265306122449
5.297027733613769,3.1917216561283484,0.9121293233581615,1.0927858400163426,7.2906081257618425,0.4163265306122449
5.317049927111302,3.2517050357906987,0.9261419429631924,1.081984245634747,7.384133445438965,0.4163265306122449
5.322294730673158,3.374309139309241,0.9164136794139431,1.0874890615795652,7.477658765116088,0.4163265306122449
5.350579762960326,3.4746352452407456,0.9139515530206597,1.0961194680193618,7.571184084793211,0.4163265306122449
5.340627539551763,3.5589571120733914,0.9028380995753837,1.093790662675441,7.664709404470335,0.4163265306122449
5.369354601117487,3.549784345858132,0.9086073211108003,1.0875079106720265,7.758234724147458,0.4163265306122449
5.384443738705594,3.721704015966342,0.9178558557951314,1.082819634955682,7.851760043824582,0.4163265306122449
5.377950526802947,3.6541169793761434,0.9175662549126145,1.0918038856280554,7.945285363501705,0.4163265306122449
5.371428548171624,3.700329516545628,0.9243586409970199,1.082157907462509,8.038810683178827,0.4163265306122449
5.382873714593143,3.8753738890289786,0.9079303958075104,1.0884546012631278,8.13233600285595,0.4163265306122449
2.885170031615991,0.7541472270833804,0.9272564642094353,1.0896550544333603,3.5280682538738097,0.4244897959183674
2.977798627167718,0.7480863032632125,0.9270547270291469,1.08760679037041,3.6187007605639803,0.4244897959183674
3.0828684455966475,0.7543626003945587,0.9226209424919334,1.0934695102368153,3.7093332672541504,0.4244897959183674
3.1635533971118375,0.7506627102419338,0.921276780319746,1.0955389672171576,3.7999657739443204,0.4244897959183674
3.2449761051537465,0.7535056657239678,0.9147864662189363,1.1001726078899683,3.890598280634491,0.4244897959183674
3.338879755988855,0.7697094502232936,0.9197250552417882,1.0962534288829346,3.9812307873246615,0.4244897959183674
3.4405255575459295,0.7961492220161628,0.9187158987260198,1.0962243491205137,4.071863294014832,0.4244897959183674
3.514204075885465,0.8135088990078563,0.9227231448979815,1.0932533882400497,4.162495800705002,0.4244897959183674
3.6068762055065955,0.8471058024155363,0.9229626851557804,1.0896234894623793,4.253128307395173,0.4244897959183674
3.6757458770051703,0.8743447508518852,0.9282486069507555,1.087824327888559,4.343760814085343,0.4244897959183674
3.7728196239684464,0.9212995664611495,0.9259966560771772,1.0952186150284025,4.434393320775513,0.4244897959183674
3.847045237252167,0.9621068735730876,0.9267985689316236,1.0881992026493754,4.525025827465683,0.4244897959183674
3.9250751660743246,1.0096336402362989,0.9138984104436501,1.094649608213045,4.615658334155853,0.4244897959183674
3.992207979636961,1.0565960488181074,0.9232565355577961,1.0950607358205353,4.706290840846024,0.4244897959183674
4.0692521138158355,1.1123320103558445,0.9238872679269106,1.0957854643573814,4.796923347536194,0.4244897959183674
4.138891927996116,1.1685490537486565,0.9180877709239319,1.097063339443184,4.887555854226364,0.4244897959183674
4.217318530687692,1.2322259849283879,0.910922958926456,1.1000069969984256,4.978188360916535,0.4244897959183674
4.277671927311615,1.2912762133350177,0.9150766648329172,1.0905527815110005,5.068820867606705,0.4244897959183674
4.343905882565622,1.3560464916004025,0.9210934433665012,1.0946364652291738,5.159453374296875,0.4244897959183674
4.395158083698215,1.4173672046818562,0.9192581680116438,1.0905638140102223,5.250085880987045,0.4244897959183674
4.468673709610439,1.4909533472949463,0.9243356225829923,1.0954771427870107,5.3407183876772155,0.4244897959183674
4.522358093089309,1.558785685635963,0.924057267507507,1.093761417894363,5.4313508943673865,0.4244897959183674
4.580029932083323,1.6308306212987143,0.9164977550781099,1.0958859008265585,5.521983401057557,0.4244897959183674
4.629254896335046,1.7017831474838696,0.9171908577747353,1.095772007527281,5.612615907747728,0.4244897959183674
4.690046699517055,1.7798677370180669,0.9171970162757883,1.0976653885627998,5.703248414437898,0.4244897959183674
4.729793909335265,1.851490376623299,0.9160919874184956,1.095489618982237,5.793880921128068,0.4244897959183674
4.776475105012382,1.9281630502139844,0.9259079340558337,1.0941742413222992,5.884513427818238,0.4244897959183674
4.836653798105301,2.012516288918129,0.922874070578716,1.0960519698976694,5.975145934508408,0.4244897959183674
4.865721365204377,2.086079833117147,0.9272728182017399,1.091561451567273,6.065778441198578,0.4244897959183674
4.900455258413153,2.1639671395021645,0.926475421528667,1.093939221655947,6.156410947888748,0.4244897959183674
4.947887343266646,2.2490500849573736,0.9320113152149295,1.0896667001809526,6.247043454578919,0.4244897959183674
4.976934320510807,2.3045471324101445,0.9223627502764363,1.0860177544524208,6.33767596126909,0.4244897959183674
5.015755142027652,2.413636639461477,0.9243181247182721,1.0916780458354645,6.42830846795926,0.4244897959183674
5.057650653137238,2.50197813381567,0.9105314472231957,1.0977296941939243,6.51894097464943,0.4244897959183674
5.10003891428892,2.5923130364127625,0.9196816161585205,1.1007347601548632,6.6095734813396,0.4244897959183674
