Drop Height,Capillary Radius,R-s,R-e,Beta
2.3055604092132387,0.09864063648451686,0.46992064360252694,1.0176199106048098,0.1
2.3229469325130383,0.08386450372066769,0.4604099746103746,1.01771920165925,0.1
2.3477612419974334,0.07883753744610768,0.4402499494510965,1.0173971870710472,0.1
2.372782129431413,0.0811464597236438,0.4546846815471829,1.0193783496899111,0.1
2.398734735946066,0.09154609137123412,0.46131923157569155,1.0171295894930148,0.1
2.4250082437880858,0.10832830532129638,0.45571593820728007,1.0174676949177281,0.1
2.4394783751882056,0.12290791145758763,0.4406356519189027,1.0204428965881363,0.1
2.4704415460894387,0.1497061112117575,0.4493775775406647,1.0160222748199281,0.1
2.4770248434540947,0.16507491546180242,0.459900371911097,1.018862276684991,0.1
2.5032154507547797,0.19245425330505941,0.4732965186101307,1.0170681815167417,0.1
2.504310334423811,0.2073073573809415,0.46933684597126984,1.0128374213525695,0.1
2.518404403891106,0.22971283519788782,0.4506676086403769,1.0142725476113448,0.1
2.53238600138335,0.241841505841658,0.4659351078659148,1.0162679274411963,0.1
2.549380824179564,0.27684535762328216,0.44594753748752947,1.014706032903057,0.1
2.5617155415553596,0.2989621680330932,0.46054151124491544,1.0200572384020385,0.1
2.569922358707769,0.3190204732844076,0.4587002322087731,1.0176106698745746,0.1
2.589611915516784,0.34468439191156724,0.45815784088449085,1.0220251248832486,0.1
2.6059612584187466,0.36850576926275164,0.4572529303190444,1.019503818569232,0.1
2.6199909844163107,0.39098248180184986,0.45094322561978684,1.0155950407703507,0.1
2.632638885850305,0.41255809081492245,0.43589209505585436,1.0199378710247755,0.1
2.6434522671727585,0.4330059213989954,0.45102196261817584,1.0164750919608272,0.1
2.6631628144379342,0.4573381593274101,0.4705304041036791,1.018706672047351,0.1
2.673732142388951,0.4770622540059605,0.43940495384846184,1.0201433232847374,0.1
2.698358932244717,0.5029258169247517,0.4683543175988283,1.0134700169155588,0.1
2.7026017319429942,0.5190592839386466,0.4573871306731043,1.016239819637414,0.1
2.7177540687925132,0.5398166535250504,0.452447010801718,1.0170254607046991,0.1
2.7354340186507287,0.5613068643339968,0.4543971611973564,1.0192503063467007,0.1
2.746167800241542,0.5792737386249178,0.4721993184010723,1.014982953415608,0.1
2.779725797079102,0.6069378390359804,0.47501530093377914,1.015425079276563,0.1
2.7945060920462517,0.6258089217639651,0.4761017861398792,1.0171075295837944,0.1
2.807986205381336,0.6436724422066572,0.461665428040828,1.0197294624610522,0.1
2.822568991265201,0.6615721355058023,0.4623317216980792,1.0178202999511035,0.1
2.846111053560763,0.6828784114468732,0.4633436488215896,1.0182895646789158,0.1
2.864185380368907,0.7013317785186975,0.45255942126117,1.0171365246070059,0.1
2.8682038600483346,0.7133042062504753,0.4875291542292168,1.0132110945642514,0.1
2.8951575298025074,0.7345747284554115,0.45464172866136,1.0166664760959307,0.1
2.925200106206168,0.7566107430625888,0.45607731638213134,1.0181874965676965,0.1
2.93062517614848,0.7677544856937978,0.4411759871603548,1.0219619813590215,0.1
2.95711039322275,0.7872434275673537,0.4646121341998783,1.0188248498436345,0.1
2.9849095400530308,0.8067340598447078,0.4658750204669705,1.0137751996075277,0.1
3.0032244089007896,0.8217430312034869,0.4702864881889718,1.0156860724595804,0.1
3.0083782096390985,0.8308006481840098,0.4572081959464372,1.0222106531614572,0.1
3.0421398622916804,0.8511345123372359,0.4582007806085554,1.0173469378593953,0.1
3.0627165490763972,0.8654934328418376,0.46574365650320293,1.0182448171527767,0.1
3.0926689595466006,0.8831389838034491,0.4519298437610072,1.0184907571649089,0.1
3.1051500754730927,0.8931180918309215,0.45437423668328036,1.0188601700993594,0.1
3.1333267375768847,0.9089360605701943,0.4585586087435717,1.0142797990468846,0.1
3.151306348501635,0.920075129518095,0.48828865251359843,1.0164717977284787,0.1
3.180926175461019,0.9353602227074637,0.45316590763808734,1.0213664119424088,0.1
3.189691989626388,0.9417154827984208,0.451867366911865,1.0159228013003043,0.1
2.4026216635624578,0.09271142054860042,0.491861654218487,1.0199675885108344,0.1142857142857143
2.4268796757588755,0.09672378875081644,0.4873829630212619,1.0215342929706797,0.1142857142857143
2.450129419521424,0.10576480160390507,0.4826737540904777,1.017601186536888,0.1142857142857143
2.473574794394549,0.11966864770426273,0.4974638503839648,1.016477932078214,0.1142857142857143
2.4949977195871944,0.13609119877786405,0.49496079154083733,1.0163552016557793,0.1142857142857143
2.5106352452165406,0.1520282645432113,0.47695199469051003,1.0216965657849768,0.1142857142857143
2.5298557276416496,0.17187924269831592,0.49287882580088216,1.0202539448178563,0.1142857142857143
2.547868031886892,0.19244606148374319,0.4872620610368028,1.0207365964348778,0.1142857142857143
2.565535936516292,0.21379302750580362,0.46504309912620667,1.0187682662001916,0.1142857142857143
2.5693173658471324,0.21932401362691445,0.4835927826111925,1.0210070159342242,0.1142857142857143
2.592751795138256,0.2541018070890044,0.5007885379470505,1.0182204993776227,0.1142857142857143
2.6025045667545235,0.2728777447116308,0.48004000002829794,1.0219557614057189,0.1142857142857143
2.6164129618996452,0.29397136599358176,0.48165412607854097,1.02146678439198,0.1142857142857143
2.638630408995196,0.3192642355276891,0.4953711164700139,1.0140020624630357,0.1142857142857143
2.6476643559723767,0.33803401477660194,0.47795054187362934,1.0195664454336173,0.1142857142857143
2.6632613335875406,0.3599816968459266,0.4649400444979695,1.0232702363755648,0.1142857142857143
2.6745824832229244,0.3797638685273762,0.47817327669454585,1.0230443751514569,0.1142857142857143
2.686991528515462,0.3999442814565484,0.47839440588419446,1.0193944920528266,0.1142857142857143
2.702408481308433,0.4213743409425277,0.4925892060544567,1.0148995880609475,0.1142857142857143
2.717919798339742,0.44262801378767325,0.4789164803980097,1.02177429613311,0.1142857142857143
2.7214599758107583,0.4581082236461532,0.4854962236658018,1.0238956806077704,0.1142857142857143
2.7471255904606218,0.4835457141901052,0.5018195435732569,1.0211194040868041,0.1142857142857143
2.75242415020017,0.49937082247356956,0.4672500409838843,1.0195088203070568,0.1142857142857143
2.7703610411457573,0.5206621888427126,0.4846875848553101,1.021814766062024,0.1142857142857143
2.790777529258137,0.5427288976413746,0.504400167622744,1.0167398805325136,0.1142857142857143
2.8051227058292834,0.561738765880477,0.48969556961165944,1.0196539843308832,0.1142857142857143
2.8169144059768527,0.5792900645158897,0.4889349872379453,1.019641371351686,0.1142857142857143
2.8404255515320402,0.6016445069588586,0.4769450254923471,1.021012828918294,0.1142857142857143
2.8529316710741144,0.618805072247836,0.4929583970374994,1.015026228665512,0.1142857142857143
2.8681270376738675,0.6367761188552773,0.4786089072601491,1.0210722647910393,0.1142857142857143
2.891139710127758,0.6577311297041902,0.48200422132862375,1.0205272889318113,0.1142857142857143
2.909800115185009,0.6764049590300903,0.48720024173780746,1.0187792415954469,0.1142857142857143
2.9191537913154595,0.6907193670712884,0.5123173377208939,1.0181325377621755,0.1142857142857143
2.938271014590171,0.7087908327420377,0.47491535124545187,1.021813305464996,0.1142857142857143
2.956441773673032,0.7260453015186102,0.4773064767195324,1.0216931390556983,0.1142857142857143
2.9780138565818595,0.7443026310335034,0.4638636716388252,1.0197284691887136,0.1142857142857143
2.989532027410779,0.7579368250942708,0.49303620464953973,1.0236790991888347,0.1142857142857143
3.0059892175088847,0.7732146452289915,0.4742758527750623,1.01774802550622,0.1142857142857143
3.037267831276638,0.7941796158397348,0.4974303712150834,1.022349276973312,0.1142857142857143
3.047153299698348,0.8058749033995865,0.4987803130245623,1.0170000611626677,0.1142857142857143
3.076293052459355,0.8250345011141684,0.4870635322281233,1.0230361087647275,0.1142857142857143
3.0898625248684093,0.8373722700568823,0.4930950385426461,1.021441279315961,0.1142857142857143
3.1180612389657334,0.8552159615396977,0.47986218122238644,1.0216658535159537,0.1142857142857143
3.133814746825092,0.8675497211776196,0.4652984454495554,1.0194510029818098,0.1142857142857143
3.1699514545913363,0.8876514239784439,0.4880570375221059,1.0205951437948066,0.1142857142857143
3.173741826500822,0.8942658044191502,0.47603049210907095,1.02250395815871,0.1142857142857143
3.200416721137584,0.9096211310391538,0.48208125332383134,1.0204824631628133,0.1142857142857143
3.2199923853534345,0.9216674286546797,0.4664971495347172,1.018786615110767,0.1142857142857143
3.2455766365777223,0.9356415166711894,0.4772538691306996,1.019239895339832,0.1142857142857143
3.2627739753337948,0.9458158368642949,0.4990102549065236,1.0161354914780922,0.1142857142857143
2.498603920951997,0.11942013458813017,0.5152460508087829,1.0235228955074873,0.1285714285714286
2.532365848467977,0.13739562705430483,0.5132047025181435,1.0240975225866669,0.1285714285714286
2.544896986137501,0.14666690369277974,0.507594858381962,1.0239323554309512,0.1285714285714286
2.5612548863550466,0.16060061345962925,0.5220256199767406,1.0210764934697438,0.1285714285714286
2.5869182252197396,0.1814493544552059,0.5238638160871653,1.0199911942190034,0.1285714285714286
2.592968571363802,0.19326924666520534,0.5090080400922042,1.0261268743323204,0.1285714285714286
2.6163459965889033,0.2153566311023751,0.5210875506365943,1.0248436100748268,0.1285714285714286
2.625479122153046,0.2308179109300028,0.5068052265829582,1.0252064730132864,0.1285714285714286
2.639790841766454,0.24959346436087296,0.5183076611813936,1.021104479149352,0.1285714285714286
2.6616761968278815,0.27262550358353943,0.5064092570785726,1.0241858430992776,0.1285714285714286
2.6690054001714816,0.2886310203976416,0.5180159602784268,1.0218979013033405,0.1285714285714286
2.6788294862054434,0.3061453675085338,0.5175237656973617,1.0218554469730174,0.1285714285714286
2.6964164802529966,0.3276099458830463,0.49138088741760955,1.0253690309443824,0.1285714285714286
2.7216755049855657,0.35279490228748556,0.5034265643367183,1.025685144726732,0.1285714285714286
2.7316705504260255,0.37057509542736594,0.5212465461015702,1.0210377782474886,0.1285714285714286
2.7314470390894208,0.3835071406169458,0.5252155586864924,1.0199981750397764,0.1285714285714286
2.754903142004555,0.40758325403761225,0.5243081699541435,1.0204392617713038,0.1285714285714286
2.763305947940201,0.4244604273350026,0.5077602041311712,1.023556293443289,0.1285714285714286
2.7758141018862714,0.4431259433762365,0.5144756092719902,1.0242710632958278,0.1285714285714286
2.793619560339128,0.46405022817824737,0.5131438801995624,1.0245804101143916,0.1285714285714286
2.8143209482226483,0.48606440117137484,0.5131159165581001,1.0216838443183434,0.1285714285714286
2.8283147231502075,0.5048016809816646,0.5161167105406131,1.023989186203052,0.1285714285714286
2.8317287640660287,0.5185886271972404,0.5018142103043435,1.0237839149025756,0.1285714285714286
2.850035562674327,0.5388015165004959,0.5032717414493261,1.0218877686096117,0.1285714285714286
2.8689616353333274,0.5590033154524418,0.5047772796101847,1.0228287508567064,0.1285714285714286
2.8818049155276007,0.5762496243626724,0.5115924534969509,1.026651781509142,0.1285714285714286
2.900793382665517,0.595892676295108,0.5126924502374992,1.0209483316220218,0.1285714285714286
2.915683222057592,0.6134526044757223,0.5002902741124069,1.0249628406113023,0.1285714285714286
2.9322251295525392,0.6314203000565657,0.5227200993936021,1.0216431750390025,0.1285714285714286
2.943216584479568,0.6467054942518874,0.5070988246934927,1.0245621886575977,0.1285714285714286
2.960844066029442,0.664506290205658,0.5069139056160251,1.0187677893794584,0.1285714285714286
2.9822045577155634,0.6835448774048885,0.5143196564635816,1.0211632475190189,0.1285714285714286
2.9993076491684074,0.7004411077072776,0.4999579970452029,1.0273675960750253,0.1285714285714286
3.017226947338639,0.7173342606262363,0.525081770719547,1.0229884829642126,0.1285714285714286
3.0398602886596753,0.7358320738401481,0.530153031409655,1.0230191321226891,0.1285714285714286
3.04834676912351,0.7481123649570616,0.49844489557820526,1.0255268677946978,0.1285714285714286
3.06901037549968,0.7650749839635456,0.5033010965263577,1.0233634140166548,0.1285714285714286
3.09362935224803,0.7832822311140412,0.505885996808463,1.0245540703542115,0.1285714285714286
3.1066089217974913,0.796355109218076,0.5134498076267059,1.0233215986354216,0.1285714285714286
3.125539600334852,0.8114894977104489,0.518077933288358,1.0220677001172527,0.1285714285714286
3.145711671639217,0.826748687325947,0.5232361689616166,1.0195859738946549,0.1285714285714286
3.163449831714898,0.840644419722979,0.5303138140073409,1.018126595811018,0.1285714285714286
3.1788895198904523,0.8532398575579462,0.4991441682079898,1.021568899186457,0.1285714285714286
3.20307291029534,0.8689557500901511,0.48324715356261255,1.0221862048759616,0.1285714285714286
3.215059495682922,0.8794128079413434,0.5078339704326129,1.0235051075926822,0.1285714285714286
3.2466741934891052,0.8972913306327632,0.5160460479042058,1.019851616517179,0.1285714285714286
3.260787834110825,0.9078230804856123,0.501724789126488,1.0236578176001716,0.1285714285714286
3.288889823845715,0.9234924015984562,0.5097766323636403,1.0221480883153038,0.1285714285714286
3.301897799176025,0.932812876470173,0.5187672427013392,1.0240174155538746,0.1285714285714286
3.324019946959954,0.9453264327185366,0.5096516711596257,1.022887196636887,0.1285714285714286
2.583677174405107,0.1525280307132366,0.5423759522860568,1.0251795568857867,0.14285714285714285
2.607483638995308,0.16804047611303802,0.5385531439608797,1.024852804308873,0.14285714285714285
2.6184786863458487,0.17855083195518281,0.5380956950453611,1.0242451688079013,0.14285714285714285
2.648073606785539,0.20045893453171498,0.524150216732387,1.0288842836244525,0.14285714285714285
2.65664805959361,0.21247014583998544,0.5279787171679865,1.0275144742968843,0.14285714285714285
2.6741392946086946,0.23010275096212016,0.5432469725415865,1.0236919248750347,0.14285714285714285
2.692957403177392,0.24912275891010252,0.5402537403615302,1.0252481693489288,0.14285714285714285
2.7036819216008774,0.2646003351321329,0.5400462575159225,1.0242278637135354,0.14285714285714285
2.7110343286523757,0.27031248411357045,0.5306827293483306,1.030040179763428,0.14285714285714285
2.736598417586789,0.30251805581329094,0.5397378631512312,1.0214394830003373,0.14285714285714285
2.747685096991968,0.31922462761788767,0.5461513046847659,1.0258118794361326,0.14285714285714285
2.758486817776581,0.33598414749972205,0.5469052418206815,1.025401721739299,0.14285714285714285
2.7661601056076757,0.3513783773706272,0.5280358414132275,1.0236091281796278,0.14285714285714285
2.7928333148189197,0.37586520148675834,0.5344653853183423,1.0251711407732043,0.14285714285714285
2.7995449591077604,0.3908856582698743,0.5411073824193414,1.0232443385046297,0.14285714285714285
2.8147857713819495,0.409896163189287,0.5216780673589998,1.025672895794232,0.14285714285714285
2.831889412965554,0.4296882394893143,0.5393994365785271,1.026128731965063,0.14285714285714285
2.8392848358049907,0.4348587823955489,0.5286099837969784,1.0278301880210556,0.14285714285714285
2.8568622388379787,0.4647120486595679,0.5460005172880099,1.0212122942128607,0.14285714285714285
2.866176537000145,0.48061717545503746,0.5497904357197402,1.026435352205364,0.14285714285714285
2.896505650965724,0.5057748309651094,0.5334554183066352,1.0271747284159491,0.14285714285714285
2.90877751598711,0.5226536701525372,0.5038319769394485,1.0272932743065408,0.14285714285714285
2.921375134366705,0.5395009186480968,0.5415422661377639,1.0231944301149511,0.14285714285714285
2.9404597927087677,0.5589910961668242,0.5267786007065604,1.0246577568333037,0.14285714285714285
2.9493038075096796,0.5737979684507871,0.5481545091962253,1.024189412168527,0.14285714285714285
2.9608094548046973,0.5895603172984434,0.5364441686760816,1.0253922553042396,0.14285714285714285
2.9811366967838877,0.6088841208994195,0.5368853427924023,1.024487783554126,0.14285714285714285
2.989030417976625,0.6226412900790051,0.5258781137221225,1.0239413060401075,0.14285714285714285
3.007826055976653,0.6407962875834942,0.5303215951706999,1.0254850724356794,0.14285714285714285
3.017951631247027,0.6550237202549068,0.5349369519375228,1.0249292067744875,0.14285714285714285
3.0469293410953093,0.6768989570734201,0.5043273365338258,1.0285876783111971,0.14285714285714285
3.059986113413367,0.6918100798195146,0.5625719572454642,1.0210690712624488,0.14285714285714285
3.0733494005119915,0.7065791721013523,0.534467735567082,1.028103101221964,0.14285714285714285
3.0918727927526306,0.7231994057877634,0.5379144442183168,1.022885343912161,0.14285714285714285
3.1196535085902637,0.7433159772920547,0.5603316172543608,1.0188386542587522,0.14285714285714285
3.123623428285155,0.7533685165059548,0.5514290601927259,1.0261978433415908,0.14285714285714285
3.1501625895244656,0.7723413038602415,0.5372687984832001,1.0273423868899303,0.14285714285714285
3.1642600190190144,0.7859371101675384,0.5468011414290121,1.0306507438899206,0.14285714285714285
3.1668114484720586,0.7945785468617393,0.5309571034333993,1.026611191647676,0.14285714285714285
3.1905675615192113,0.8114669956090003,0.5389215574660158,1.0228622288336435,0.14285714285714285
3.213829230091372,0.8278195774796521,0.5458926093359323,1.025525501467801,0.14285714285714285
3.234748082874863,0.8429005249620213,0.5306842622139871,1.0294188870514482,0.14285714285714285
3.2507852640723134,0.8557109759055107,0.5563374247950101,1.0233686410395069,0.14285714285714285
3.2726793592594454,0.8705172096383373,0.5263387126194764,1.0298827597426712,0.14285714285714285
3.2905345843163145,0.8833924999053091,0.5292821689571163,1.0225574440388199,0.14285714285714285
3.2927583190536294,0.8897970332085464,0.540089613571222,1.021896922572978,0.14285714285714285
3.3271085412708388,0.9084905233756917,0.5476525728071228,1.0241203158118832,0.14285714285714285
3.350225550478554,0.9224249524880422,0.5196119388768631,1.0262739813726127,0.14285714285714285
3.3652758327321153,0.9328732737500931,0.5429837544257607,1.024849247785145,0.14285714285714285
3.3942432664510576,0.948393306823475,0.5301795226396756,1.0275722127877052,0.14285714285714285
2.662345900856142,0.18449770482881328,0.5607219363479106,1.0242959929167175,0.15714285714285714
2.675257173372276,0.19503101588105914,0.5606176270297395,1.0237571790650148,0.15714285714285714
2.7023170947781088,0.2142991980435632,0.5644722540225819,1.0269799850121106,0.15714285714285714
2.72200467341976,0.23073472906137701,0.563742746684382,1.0291346449198304,0.15714285714285714
2.735049446885808,0.24463269528752785,0.5686421352031703,1.0270770439831043,0.15714285714285714
2.7572138372408266,0.26386210516005937,0.5677008135683446,1.029571834023284,0.15714285714285714
2.758939488361689,0.27341505076531425,0.5550528279247685,1.029663854664859,0.15714285714285714
2.7773699782573336,0.2917913049444107,0.5706675508084128,1.0266472530817525,0.15714285714285714
2.79273946770803,0.30899379826697654,0.557159437888148,1.0289286333725416,0.15714285714285714
2.811625453762288,0.3281614149480886,0.573814836814863,1.0250778690422044,0.15714285714285714
2.8271323585553843,0.345876959933626,0.5456756660717829,1.0306382786271937,0.15714285714285714
2.845596078786312,0.36513099015697986,0.5651013025812622,1.0287406142115272,0.15714285714285714
2.8492391970234965,0.3774872321810917,0.5538572920514097,1.0296239985301405,0.15714285714285714
2.86003155763063,0.39331503569672827,0.5538892281400011,1.0274916897212631,0.15714285714285714
2.874821693400456,0.4110328281139595,0.5725648198947463,1.028752022997274,0.15714285714285714
2.8980307808111094,0.43258441483631876,0.5601735553888186,1.0311380682564273,0.15714285714285714
2.906205982333487,0.4472032604203899,0.5634861087514563,1.0299336757890072,0.15714285714285714
2.9123677304849935,0.4608937668038184,0.5341260164541388,1.0332189419633646,0.15714285714285714
